# Wavelength (nm) Absorption coefficient (cm^-1)
1365.19 0
1362.19 1.41596e-05
1359.2 5.23369e-05
1356.22 0.000120984
1353.26 0.000209341
1350.31 0.00033146
1347.37 0.000471019
1344.44 0.000647203
1341.53 0.000835722
1338.63 0.00106945
1335.75 0.0013063
1332.87 0.00159268
1330.01 0.00188399
1327.16 0.00222238
1324.32 0.00256144
1321.5 0.00298901
1318.68 0.00334595
1315.88 0.00379573
1313.09 0.0042701
1310.31 0.00478014
1307.55 0.00527186
1304.79 0.00578318
1302.05 0.00637444
1299.32 0.00698968
1296.6 0.00762828
1293.89 0.00819244
1291.19 0.00889329
1288.51 0.00961183
1285.83 0.0103641
1283.17 0.0110198
1280.52 0.0118241
1277.87 0.0127235
1275.24 0.0135177
1272.62 0.014407
1270.01 0.0152514
1267.41 0.0161949
1264.83 0.0170892
1262.25 0.0180873
1259.68 0.0190317
1257.12 0.0200839
1254.58 0.0210784
1252.04 0.022185
1249.52 0.02341
1247 0.0243901
1244.5 0.0255793
1242 0.0267966
1239.51 0.028042
1237.04 0.0292145
1234.57 0.0304112
1232.12 0.0317269
1229.67 0.0330907
1227.23 0.034473
1224.81 0.0358725
1222.39 0.0372076
1219.98 0.0385669
1217.58 0.0401646
1215.2 0.0415765
1212.82 0.0431232
1210.45 0.0445736
1208.08 0.0461748
1205.73 0.047804
1203.39 0.0493424
1201.06 0.0511464
1198.73 0.0527246
1196.42 0.0543396
1194.11 0.0562317
1191.81 0.0578855
1189.52 0.0597203
1187.24 0.0615562
1184.97 0.0634476
1182.71 0.065218
1180.46 0.0671355
1178.21 0.0691095
1175.97 0.0710976
1173.74 0.0731288
1171.52 0.0751577
1169.31 0.0770821
1167.11 0.0791797
1164.91 0.0811222
1162.73 0.0834597
1160.55 0.085658
1158.38 0.0876942
1156.22 0.0901062
1154.06 0.0920322
1151.92 0.0945024
1149.78 0.0968221
1147.65 0.0989852
1145.52 0.101545
1143.41 0.103984
1141.3 0.106398
1139.2 0.108876
1137.11 0.111363
1135.03 0.113681
1132.95 0.116222
1130.88 0.118828
1128.82 0.121425
1126.77 0.124256
1124.72 0.126702
1122.68 0.129613
1120.65 0.132323
1118.63 0.134867
1116.61 0.137847
1114.6 0.140443
1112.6 0.143283
1110.61 0.146131
1108.62 0.149252
1106.64 0.151929
1104.66 0.155111
1102.7 0.158071
1100.74 0.161059
1098.78 0.164098
1096.84 0.167402
1094.9 0.170497
1092.97 0.173599
1091.04 0.17675
1089.12 0.180153
1087.21 0.183114
1085.31 0.1866
1083.41 0.189865
1081.52 0.19339
1079.63 0.196712
1077.75 0.200038
1075.88 0.203703
1074.02 0.206824
1072.16 0.210257
1070.3 0.21372
1068.46 0.217452
1066.62 0.221243
1064.78 0.224819
1062.96 0.228672
1061.14 0.23253
1059.32 0.236193
1057.51 0.239832
1055.71 0.243495
1053.91 0.247529
1052.12 0.251567
1050.34 0.255055
1048.56 0.259152
1046.79 0.263281
1045.02 0.267172
1043.26 0.271334
1041.51 0.275227
1039.76 0.279203
1038.02 0.283485
1036.28 0.287826
1034.55 0.292172
1032.82 0.295894
1031.1 0.300641
1029.39 0.305078
1027.68 0.309259
1025.98 0.313758
1024.28 0.318287
1022.59 0.322818
1020.91 0.327116
1019.23 0.33141
1017.55 0.336093
1015.88 0.341107
1014.22 0.345857
1012.56 0.350604
1010.91 0.355077
1009.26 0.359885
1007.62 0.364416
1005.98 0.36963
1004.35 0.374566
1002.73 0.3795
1001.11 0.384499
999.491 0.389175
997.88 0.394201
996.275 0.39965
994.675 0.40474
993.08 0.409896
991.491 0.415083
989.906 0.420633
988.327 0.425884
986.752 0.431132
985.183 0.436448
983.618 0.442167
982.058 0.447546
980.504 0.452956
978.954 0.458396
977.409 0.464252
975.869 0.469757
974.334 0.475295
972.804 0.480863
971.278 0.486815
969.758 0.492448
968.242 0.498147
966.73 0.504239
965.224 0.509965
963.722 0.515722
962.225 0.521915
960.732 0.52818
959.244 0.534034
957.761 0.540292
956.282 0.546287
954.808 0.553065
953.339 0.559048
951.874 0.56552
950.413 0.571987
948.957 0.578067
947.505 0.584682
946.058 0.591211
944.615 0.597815
943.177 0.604494
941.743 0.610776
940.313 0.617957
938.888 0.624263
937.466 0.63108
936.05 0.638373
934.637 0.64526
933.229 0.651697
931.825 0.659098
930.425 0.66609
929.03 0.673116
927.638 0.680134
926.251 0.687273
924.868 0.694901
923.489 0.702024
922.114 0.709728
920.743 0.716504
919.377 0.724659
918.014 0.731543
916.655 0.739352
915.301 0.746726
913.95 0.754655
912.603 0.7621
911.261 0.770103
909.922 0.777573
908.587 0.785652
907.256 0.793766
905.929 0.801388
904.606 0.810064
903.287 0.817806
901.972 0.825533
900.66 0.834281
899.352 0.842622
898.048 0.851001
896.748 0.858918
895.452 0.867873
894.159 0.876317
892.87 0.884896
891.585 0.892958
890.303 0.90207
889.025 0.910713
887.751 0.919908
886.48 0.928162
885.214 0.937435
883.95 0.946232
882.69 0.955585
881.434 0.96498
880.181 0.973942
878.932 0.983468
877.687 0.991928
876.445 1.00153
875.206 1.01118
873.971 1.02028
872.74 1.03
871.512 1.03977
870.287 1.04899
869.066 1.05883
867.848 1.06927
866.634 1.0792
865.423 1.08867
864.216 1.09863
863.012 1.10868
861.811 1.11933
860.613 1.12896
859.419 1.13974
858.228 1.15052
857.041 1.16078
855.857 1.17113
854.676 1.18203
853.498 1.1919
852.323 1.20295
851.152 1.21403
849.984 1.22511
848.819 1.23565
847.657 1.24687
846.499 1.25761
845.344 1.2695
844.192 1.28085
843.042 1.29165
841.897 1.30368
840.754 1.31521
839.614 1.32615
838.477 1.3383
837.344 1.34997
836.213 1.36168
835.086 1.37398
833.962 1.38518
832.84 1.39817
831.722 1.41012
830.607 1.42205
829.494 1.43463
828.385 1.44665
827.278 1.45994
826.175 1.47205
825.074 1.48482
823.977 1.49837
822.882 1.51124
821.79 1.52415
820.701 1.53648
819.615 1.55022
818.532 1.56396
817.452 1.57637
816.374 1.5902
815.3 1.60414
814.228 1.61744
813.159 1.63078
812.093 1.64551
811.029 1.65895
809.969 1.67314
808.911 1.68731
807.856 1.70153
806.804 1.71593
805.754 1.73026
804.707 1.74475
803.663 1.75983
802.622 1.77442
801.583 1.78901
800.547 1.80364
799.514 1.81904
798.483 1.83443
797.455 1.84934
796.429 1.86484
795.407 1.88179
794.387 1.89746
793.369 1.91318
792.354 1.92902
791.342 1.94484
790.332 1.96139
789.325 1.97738
788.32 1.99487
787.318 2.01096
786.319 2.02787
785.322 2.04409
784.327 2.06194
783.335 2.0793
782.346 2.09915
781.359 2.12646
780.374 2.14942
779.392 2.17529
778.413 2.21507
777.436 2.24507
776.461 2.25211
775.489 2.33924
774.519 2.2986
773.552 2.35504
772.587 2.41924
771.625 2.48615
770.665 2.44013
769.707 2.57873
768.751 2.60464
767.799 2.54116
766.848 2.68936
765.9 2.63245
764.954 2.82913
764.01 2.74949
763.069 2.87183
762.13 2.74753
761.193 2.86073
760.259 3.07495
759.327 3.14483
758.397 2.96057
757.47 3.32836
756.545 3.05162
755.622 3.3085
754.701 3.19535
753.782 3.71146
752.866 3.56193
751.952 3.38523
751.04 3.46865
750.131 3.391
749.223 3.75751
748.318 3.6612
747.415 4.38029
746.514 3.45508
745.616 3.86131
744.719 3.7918
743.825 4.39558
742.933 4.05503
742.043 3.83171
741.155 4.54387
740.269 4.58515
739.385 4.1887
738.504 4.29628
737.624 4.82948
736.747 4.89424
735.871 4.1872
734.998 4.60507
734.127 5.05889
733.258 5.15979
732.391 4.32735
731.526 5.01286
730.663 5.57614
729.802 5.85041
728.943 4.93954
728.086 5.65046
727.231 5.50127
726.378 5.51646
725.528 5.45531
724.679 6.46865
723.832 7.10725
722.987 5.75162
722.144 5.97909
721.303 6.45214
720.464 6.19907
719.627 7.49467
718.792 6.04598
717.959 7.02781
717.127 6.34072
716.298 8.46657
715.471 5.87615
714.645 7.55562
713.821 8.7107
713 6.95899
712.18 7.79545
711.362 8.25538
710.546 8.06935
709.732 7.19217
708.919 8.50077
708.109 7.58508
707.3 10.1759
706.494 8.93285
705.689 7.85895
704.885 7.67275
704.084 9.73142
703.285 9.75
702.487 9.95264
701.691 9.79456
700.897 8.91405
700.105 8.70789
699.315 9.74018
698.526 11.0713
697.739 9.61732
696.954 10.195
696.17 12.1848
695.389 10.3048
694.609 11.2002
693.831 10.5981
693.055 11.4612
692.28 14.8522
691.507 11.0817
690.736 12.9664
689.966 11.8386
689.199 13.9745
688.433 13.3647
687.668 12.056
686.906 11.7552
686.145 13.8091
685.385 14.4329
684.628 14.9183
683.872 13.7935
683.118 12.2167
682.365 15.0623
681.614 14.6656
680.865 14.4312
680.117 17.7027
679.371 16.7018
678.627 13.8583
677.884 15.7691
677.143 17.3425
676.404 15.3021
675.666 15.1485
674.929 22.1628
674.195 16.1218
673.462 19.953
672.73 14.8059
672 19.5844
671.272 18.5419
670.545 19.1978
669.82 18.0925
669.097 20.567
668.375 19.8399
667.654 19.3746
666.935 20.3154
666.218 21.3467
665.502 19.4377
664.788 19.7296
664.075 25.0776
663.364 24.331
662.654 22.0282
661.946 19.9997
661.239 29.1111
660.534 24.7704
659.83 22.84
659.128 24.737
658.427 22.5604
657.728 28.6125
657.031 29.7468
656.334 24.7386
655.64 26.6363
654.946 24.3207
654.254 25.9878
653.564 29.3851
652.875 35.6025
652.188 31.0073
651.502 29.0403
650.817 29.2797
650.134 32.7801
649.452 31.6639
648.772 31.1194
648.093 25.5425
647.416 31.6843
646.74 41.3685
646.065 39.0044
645.392 37.1089
644.72 39.1242
644.05 24.4833
643.381 31.9662
642.713 37.75
642.047 44.5322
641.382 40.7388
640.719 35.4238
640.056 47.2244
639.396 39.6429
638.736 45.047
638.078 38.3827
637.422 35.2655
636.766 49.7697
636.112 45.9343
635.46 45.5762
634.808 54.0993
634.159 43.1859
633.51 41.2297
632.863 49.6082
632.217 55.9639
631.572 50.5563
630.929 45.9746
630.287 42.7574
629.646 66.0471
629.006 56.6771
628.368 45.2265
627.731 51.0566
627.096 58.0935
626.462 66.5627
625.829 58.8102
625.197 56.8281
624.567 73.6916
623.937 46.3825
623.309 65.1765
622.683 71.5285
622.057 74.186
621.433 71.8545
620.81 60.3016
620.189 78.9888
619.568 74.4097
618.949 74.1844
618.331 68.9068
617.715 73.3101
617.099 79.0196
616.485 82.893
615.872 74.9827
615.26 86.6954
614.65 65.4869
614.04 88.9987
613.432 87.8973
612.825 100.359
612.22 92.6938
611.615 78.9799
611.012 109.029
610.41 99.2915
609.809 100.36
609.209 84.4284
608.61 107.723
608.013 105.473
607.416 114.272
606.821 107.815
606.227 121.311
605.635 79.7069
605.043 108.596
604.453 141.029
603.863 111.942
603.275 118.131
602.688 105.917
602.102 129.583
601.517 136.851
600.934 116.278
600.351 120.921
599.77 148.395
599.19 139.635
598.611 147.075
598.033 162.601
597.456 146.883
596.88 193.65
596.306 294.97
595.732 346.744
595.16 423.239
594.588 474.63
594.018 594.55
593.449 613.505
592.881 808.369
592.314 802.357
591.748 874.067
591.183 995.901
590.619 978.578
590.057 1071.67
589.495 1062.84
588.935 1086.59
588.375 1409.36
587.817 1450.55
587.259 1289.35
586.703 1732.68
586.148 1612.7
585.594 1711.17
585.041 1590.52
584.489 1962.13
583.937 1955.46
583.387 1723.74
582.839 1823.31
582.291 1930.43
581.744 1991.39
581.198 1928.46
580.653 2299.51
580.109 2077.92
579.566 2251.46
579.024 2194.15
578.484 2706.42
577.944 2300.11
577.405 2711.63
576.867 2976.12
576.331 2915.34
575.795 4068.48
575.26 3990.37
574.726 3900.6
574.193 4776.61
573.662 4577.29
573.131 4582.52
572.601 4955.89
572.072 5489.06
571.544 4639.66
571.017 6272.29
570.491 5368.39
569.966 6479.97
569.442 5429.93
568.919 6231.95
568.397 7323.61
567.876 6807.24
567.356 6102.32
566.837 7029.75
566.318 7293.64
565.801 7770.88
565.285 8348.58
564.769 7532.53
564.255 7469.81
563.741 8753.64
563.229 7516.8
562.717 7189.54
562.206 9550.09
561.696 7782.84
561.187 9213.95
560.679 8160.38
560.172 9635.36
559.666 7691.49
559.161 8394.98
558.656 9496.76
558.153 9765.35
557.65 8944.85
557.149 8147.09
556.648 9338.75
556.148 9002
555.649 9844.83
555.151 9508.3
554.654 10110.8
554.158 9233.34
553.663 9488.22
553.168 8052.27
552.675 9673.64
552.182 10519.3
551.69 10296.2
551.199 10196.3
550.709 9943.84
550.22 9377.41
549.731 10123.8
549.244 9585.57
548.757 10329.2
548.272 11034.4
547.787 11653.6
547.303 11127.2
546.819 10447.5
546.337 10402.1
545.856 9215.03
545.375 11753.1
544.895 10240.4
544.416 11469.4
543.938 11904.6
543.461 10290.6
542.984 10418.7
542.509 10780.9
542.034 11018.5
541.56 11564.2
541.087 12580.5
540.615 11214
540.143 10831.7
539.673 12610.9
539.203 10976.5
538.734 11950.5
538.266 11311.9
537.798 12108.9
537.332 12884.6
536.866 12328.9
536.401 12121.2
535.937 10929.1
535.474 14499
535.011 14036.3
534.549 13376.9
534.088 13487.2
533.628 13188.7
533.169 13744.9
532.71 15665.2
532.253 13149.1
531.796 14172.8
531.339 16164.5
530.884 15138
530.429 15116.9
529.975 15869.6
529.522 15199.8
529.07 16089.8
528.619 16234.9
528.168 15481.8
527.718 16900.8
527.268 16369.4
526.82 17150.4
526.372 17662.9
525.925 16750.4
525.479 17836.1
525.034 18039.6
524.589 17916.4
524.145 18056.8
523.702 17936.6
523.26 18719.4
522.818 19683.7
522.377 17951.5
521.937 20867.4
521.497 19131
521.059 19509.5
520.621 20304.2
520.183 20539.2
519.747 19872
519.311 23446.4
518.876 21668.2
518.442 21049.1
518.008 20209.2
517.575 20469.6
517.143 24797.7
516.712 24288.8
516.281 22519
515.851 22905
515.422 23649.9
514.993 24668.9
514.565 23715.2
514.138 23545.4
513.712 26147.9
513.286 26151.6
512.861 26410.6
512.437 26141.6
512.013 25639.7
511.59 27585
511.168 26321
510.746 28194
510.325 27824.5
509.905 29655.7
509.486 27576.9
509.067 29156.2
508.649 29504
508.232 31227.3
507.815 30768.7
507.399 31363.3
506.984 30655.3
506.569 33137.2
506.155 32535.5
505.742 36060.9
505.329 33650.2
504.917 35794.4
504.506 38006.7
504.095 41891.7
503.685 41982.8
503.276 40459.1
502.868 40031.1
502.46 40541.6
502.052 38148
501.646 37380.3
501.24 40442.4
500.834 39185.7
500.43 40880.8
500.026 41319.3
499.622 37297.3
499.22 40016.4
498.818 39904.2
498.416 40371.8
498.016 40040.1
497.615 38294.6
497.216 40642
496.817 38888.1
496.419 41554.5
496.021 41622.4
495.625 40903.2
495.228 41065.4
494.833 40600.9
494.438 43039.9
494.043 42951
493.649 44243.7
493.256 44905.2
492.864 45310.7
492.472 48467.6
492.081 49583.3
491.69 50726.7
491.3 52760.3
490.911 54280.8
490.522 58594.4
490.134 64163
489.746 69997.3
489.359 69229.9
488.973 65407.9
488.587 64226.9
488.202 62107.7
487.818 59639.5
487.434 59861.1
487.05 57893.4
486.668 57988.5
486.286 57280.6
485.904 54980.8
485.523 55952.1
485.143 55643.7
484.763 53105
484.384 55310.3
484.006 52702.2
483.628 53098.1
483.25 50075.6
482.874 50793.2
482.497 50693.4
482.122 48817.1
481.747 48208.2
481.372 50172.1
480.999 47610.5
480.625 49005.4
480.253 49737
479.881 50243.5
479.509 48824.2
479.138 48772.2
478.768 49385.7
478.398 48051.4
478.029 47510.1
477.66 46071.3
477.292 47755.2
476.925 47699.2
476.558 44335.1
476.191 45022.5
475.825 46166.8
475.46 44416.1
475.095 44757.9
474.731 45127
474.368 43272.6
474.005 43982.3
473.642 43614.3
473.28 43403.7
472.919 45273.2
472.558 44362.7
472.198 44051.3
471.838 43239.6
471.479 43962.9
471.12 44597.5
470.762 44398.9
470.405 43445.3
470.048 43685.4
469.691 44719.4
469.335 46858.9
468.98 46921.8
468.625 47973.4
468.271 48695.8
467.917 48110.6
467.564 49446.5
467.211 48389.5
466.859 47871.8
466.507 48359.9
466.156 45984.9
465.806 48164.9
465.456 48114.6
465.106 47890
464.757 48061.7
464.409 47016.4
464.061 48630.9
463.713 49347.9
463.366 47743
463.02 48240.8
462.674 50662.2
462.329 50621
461.984 53088.9
461.64 50379.1
461.296 50451.9
460.952 52971.1
460.61 52405.8
460.267 53959.7
459.926 52674.2
459.584 51568.2
459.244 51943
458.903 50554
458.564 52112.7
458.224 51505.2
457.886 51313.7
457.547 49023.4
457.21 51370
456.872 50387.9
456.536 52477.8
456.199 51217.5
455.864 51547.6
455.528 50423.6
455.194 50840.4
454.859 51375.7
454.525 53088.5
454.192 51462
453.859 51811
453.527 50578.7
453.195 52385.8
452.864 53667.8
452.533 51127.4
452.203 52668
451.873 51782.4
451.543 53159.9
451.214 52194.2
450.886 52762
450.558 54095.1
450.23 52932.4
449.903 52578.5
449.577 52729.6
449.251 55223.5
448.925 53473.1
448.6 52509.1
448.275 57582.4
447.951 52435.4
447.627 56522.8
447.304 53671.6
446.981 53363.8
446.659 56983.6
446.337 55539.6
446.016 55391.4
445.695 55333.9
445.374 55514.3
445.054 56280.9
444.735 55370.4
444.415 57285.7
444.097 55619.3
443.779 57555.5
443.461 57020.5
443.144 55944.8
442.827 57927.9
442.51 57461.3
442.194 60977.3
441.879 55887.5
441.564 60592.1
441.249 58845.6
440.935 60244.9
440.622 60475.7
440.308 61012.3
439.996 61247.7
439.683 62044.8
439.371 62375.9
439.06 63176.4
438.749 64901.8
438.438 67060.8
438.128 64922.1
437.818 63824.8
437.509 64424.6
437.2 64618.8
436.892 63687.3
436.584 62159.2
436.277 63080.5
435.969 62049
435.663 62284.4
435.357 61561.5
435.051 61912.9
434.745 59897.5
434.44 59227.9
434.136 60113.5
433.832 59764.9
433.528 58722.8
433.225 58643.6
432.922 58036.9
432.62 57479.5
432.318 56198.2
432.016 56116.1
431.715 58747.6
431.414 54645.9
431.114 57072.6
430.814 56481.9
430.515 54080
430.216 54291.5
429.917 54679.3
429.619 59026.4
429.321 55799.9
429.024 52913.1
428.727 54485.4
428.43 54070.3
428.134 58160.6
427.838 57389.8
427.543 56697.1
427.248 54730.9
426.954 56394.2
426.66 53546.9
426.366 59727.1
